iter	MAE	RMSE
0	0.7477935317	0.9242488975
1	0.7338174706	0.9074817405
2	0.720630492	0.89152875
3	0.7096546839	0.8786555638
4	0.6987576416	0.8660372533
5	0.6893848479	0.855068067
6	0.679702233	0.8442336847
7	0.6711788928	0.8349729537
8	0.6633752526	0.8265256079
9	0.6569801323	0.8195322688
10	0.650932263	0.8128392368
11	0.6453100354	0.8066101792
12	0.6396422043	0.8007442187
13	0.6351415516	0.7959722297
14	0.6304960739	0.7911372888
15	0.6264195839	0.7868154778
16	0.6226483768	0.7830216566
17	0.6188259125	0.7791985941
18	0.6154500205	0.7755925918
19	0.6121648805	0.7722996686
20	0.6093146634	0.7693889418
21	0.6068390496	0.7668534253
22	0.6042121298	0.7643796799
23	0.602036625	0.7621579611
24	0.5999066011	0.7599977526
25	0.597929294	0.7580919908
26	0.5957276171	0.7560409886
27	0.5940306663	0.7543553808
28	0.5921278312	0.7525068334
29	0.5903181619	0.7508451357
30	0.5886107406	0.7492270607
31	0.5869049318	0.7473986818
32	0.5855347035	0.7460376677
33	0.5840728227	0.7444821297
34	0.5830126631	0.7433642104
35	0.5821633184	0.7425248193
36	0.5811738447	0.7415218591
37	0.5800548967	0.7405216031
38	0.5790600597	0.739625492
39	0.5781951246	0.73872199
40	0.5770137291	0.7374039033
41	0.5761997628	0.7365572049
42	0.5752333941	0.7354574017
43	0.5746218729	0.734834052
44	0.5737422056	0.7339842563
45	0.5730820406	0.7332771736
46	0.5725732891	0.732649275
47	0.5719942466	0.7319781334
48	0.5711667877	0.7311214891
49	0.5705923082	0.730430136
50	0.5700053283	0.7298333098
51	0.5693948787	0.7291725297
52	0.5688665301	0.7285962633
53	0.5682637101	0.7279177779
54	0.5675410068	0.7271808825
55	0.5668211716	0.7263017143
56	0.5663792796	0.7257910658
57	0.5657682806	0.7250996836
58	0.5651948512	0.7243826111
59	0.5647620383	0.7239005091
60	0.5643190423	0.7234079205
61	0.5638346508	0.7228987424
62	0.5632469268	0.7222210231
63	0.5629243499	0.7218610878
64	0.5624943563	0.7213423119
65	0.5618304064	0.7206689829
66	0.5613523528	0.7201451237
67	0.5605867952	0.7192986442
68	0.5601945929	0.7188805134
69	0.5599308449	0.7185725921
70	0.5594346275	0.7180078572
71	0.5591398851	0.7176331369
72	0.5588254243	0.7172497115
73	0.5584702891	0.7168585223
74	0.5582297142	0.7165609163
75	0.5578908075	0.7161380127
76	0.5574302231	0.7156247085
77	0.5571405365	0.7152801508
78	0.5566961983	0.7147854075
79	0.5563901256	0.714404472
80	0.5561207953	0.7140590759
81	0.5556982946	0.7136049461
82	0.5552560707	0.7131055939
83	0.5549948607	0.7128411745
84	0.554688627	0.7125279928
85	0.5544095857	0.7121965837
86	0.5541118228	0.7118390652
87	0.5539346515	0.7115805967
88	0.5535893681	0.7112931953
89	0.553197785	0.7108513855
90	0.5529298387	0.7105457018
91	0.5525126388	0.7100826194
92	0.552258224	0.7097751772
93	0.5520095754	0.7094425419
94	0.5517900181	0.7091559774
95	0.5515264571	0.708870401
96	0.5513003048	0.7086460763
97	0.5509750189	0.7083120452
98	0.5507199675	0.7080105389
99	0.5505151149	0.7077327058
100	0.5502031582	0.7074211168
101	0.5499407581	0.7071336447
102	0.5496970765	0.7068349061
103	0.5495014045	0.7065939602
104	0.5492000035	0.7062338653
105	0.54897583	0.7059450908
106	0.5487550643	0.7056652685
107	0.5485615068	0.7054717347
108	0.5482766351	0.7051336138
109	0.5481002884	0.7049468108
110	0.5478714139	0.7046499053
111	0.5475102956	0.7043023025
112	0.5471214082	0.703860648
113	0.5468419858	0.7035387545
114	0.5466823677	0.7033468118
115	0.5464891452	0.7031143202
116	0.5462255304	0.7028236414
117	0.5459319126	0.7025513502
118	0.5457829158	0.7023813512
119	0.5456086962	0.702215426
120	0.5453007563	0.7019014569
121	0.5450930523	0.7016623537
122	0.5448344618	0.7013962229
123	0.5446685746	0.7012409762
124	0.544508728	0.7010395647
125	0.54426099	0.7008053171
126	0.5440823085	0.7006172054
127	0.543892599	0.700412689
128	0.5436808434	0.7001811082
129	0.543504474	0.699955623
130	0.5433475099	0.6997769367
131	0.5430425858	0.6994303541
132	0.5428705617	0.699237838
133	0.5426408969	0.6990251249
134	0.5418874934	0.698248214
135	0.5416629802	0.6979848676
136	0.5413761938	0.6976761316
137	0.5410084518	0.6972317333
138	0.5406455503	0.6968274785
139	0.5404304559	0.6965357818
140	0.5401910161	0.6962221778
141	0.5398472639	0.6958757118
142	0.5395254644	0.6955378542
143	0.5393669554	0.6953669315
144	0.5392209392	0.6951805041
145	0.5389349915	0.6948644405
146	0.5387411182	0.6946108379
147	0.5385094483	0.6943870963
148	0.5382530992	0.6940947092
149	0.5380698283	0.6938717852
150	0.5377450231	0.6935030629
151	0.5375388654	0.6932800758
152	0.5372486458	0.6929384299
153	0.5369260922	0.692645986
154	0.5366653387	0.6923696841
155	0.5362050976	0.6919061501
156	0.5359537788	0.6915982042
157	0.5357293426	0.6913558526
158	0.5354524805	0.6910109662
159	0.5352089165	0.6907298179
160	0.5350198199	0.6905159458
161	0.5347966246	0.6902415569
162	0.5345659716	0.6899430941
163	0.5343785732	0.6896889813
164	0.5340695718	0.6893011362
165	0.5338823827	0.689089597
166	0.533655558	0.6888308754
167	0.5333077835	0.6884917145
168	0.5331173502	0.6882310191
169	0.532933597	0.6880063796
170	0.532577944	0.6876110517
171	0.532345761	0.6873250018
172	0.5320183922	0.6869143889
173	0.5317906745	0.6866395094
174	0.5313804706	0.6862686104
175	0.5311715027	0.6860332634
176	0.5309932459	0.6858105057
177	0.5307260924	0.6855059081
178	0.5303970074	0.6851961304
179	0.5301235322	0.6848951275
180	0.5299397827	0.6846402863
181	0.5297259003	0.6843672071
182	0.5293934327	0.6839723754
183	0.5292293365	0.683757997
184	0.5290922302	0.6835237541
185	0.5288986508	0.6832742527
186	0.5285178222	0.6828400917
187	0.5281118776	0.6823863377
188	0.5278736822	0.6820834913
189	0.5274700663	0.6816107329
190	0.5271486141	0.681312736
191	0.5270289694	0.6811254602
192	0.5267634273	0.6807924589
193	0.526531653	0.680555536
194	0.5262180634	0.6801403675
195	0.5259250385	0.679772212
196	0.5256243255	0.6794439634
197	0.5254300312	0.6792017415
198	0.5252097145	0.6789501453
199	0.524992137	0.6786673616
200	0.5248584094	0.6784788132
201	0.5244785541	0.6781353049
202	0.5243518456	0.677989742
203	0.5241911587	0.6777762191
204	0.5239576075	0.6774800161
205	0.5236271457	0.6771095805
206	0.5232696589	0.6767315623
207	0.5229844991	0.6764392466
208	0.5227169748	0.6761339282
209	0.5224554056	0.6757903887
210	0.5223007018	0.6755855371
211	0.522154869	0.675394912
212	0.5218659256	0.6751167055
213	0.521625638	0.6748849773
214	0.5213140795	0.6745388912
215	0.5210634817	0.6742572844
216	0.5209035361	0.6740425007
217	0.5206568107	0.6737440761
218	0.5203943713	0.6734351003
219	0.5201781614	0.6731451416
220	0.5199793796	0.6729096908
221	0.5196960426	0.6725744074
222	0.5194723102	0.6722690128
223	0.519314007	0.6720690652
224	0.5192192756	0.6719266934
225	0.5189941482	0.6716580994
226	0.5188152388	0.6713957417
227	0.5185302716	0.6710417298
228	0.5183205766	0.6708063616
229	0.5180783534	0.6705194976
230	0.5178893895	0.6702937184
231	0.5177084074	0.670047698
232	0.5175461788	0.6698459609
233	0.5172936489	0.6695593167
234	0.5171462078	0.6693597123
235	0.5168454018	0.6690211001
236	0.5167481949	0.6688891399
237	0.516463357	0.668532037
238	0.5162873127	0.6683090852
239	0.5160685053	0.6680163416
240	0.5158538413	0.6677433555
241	0.5155895541	0.6674352406
242	0.5152882372	0.6671074726
243	0.5151552582	0.6669193496
244	0.514997374	0.6666975916
245	0.5148512453	0.6665083975
246	0.5147193824	0.6663420023
247	0.5145569117	0.6661346014
248	0.5143069935	0.6659211783
249	0.5140729752	0.6656470696
250	0.5138789284	0.6654099683
251	0.5135721118	0.665087983
252	0.5134971505	0.6649514485
253	0.5133196318	0.6647209324
254	0.5130250923	0.6643958456
255	0.5128538265	0.6641701786
256	0.5126545334	0.6639343244
257	0.5124536755	0.6636795914
258	0.5122361474	0.6634031255
259	0.5120653553	0.6632035138
260	0.5118982644	0.6629935605
261	0.5116999414	0.6627427556
262	0.511514432	0.6625167834
263	0.5114369586	0.6624195207
264	0.5112457035	0.6621929586
265	0.5110705024	0.6619503239
266	0.5108043927	0.6616412118
267	0.510560937	0.6613822265
268	0.5104156469	0.6612093063
269	0.5102038672	0.6609261956
270	0.5100690839	0.6607383117
271	0.5099142615	0.6605476794
272	0.509721297	0.6603212178
273	0.5095138674	0.6601010215
274	0.5094130311	0.6599521298
275	0.5091199966	0.6595903664
276	0.5088840832	0.6593193742
277	0.5087036624	0.6590858072
278	0.5085181795	0.6588628237
279	0.508344955	0.6586509552
280	0.5081313243	0.658396172
281	0.507899658	0.658169194
282	0.507720011	0.6579636028
283	0.5075111851	0.6577358133
284	0.507405558	0.6575776344
285	0.5072598716	0.6573945788
286	0.5069866432	0.6571256336
287	0.5067943023	0.6569126348
288	0.506567652	0.656681365
289	0.5064525185	0.6565266457
290	0.5063583726	0.656383684
291	0.5062592239	0.6562430829
292	0.506199602	0.6561515284
293	0.5061154334	0.6560437253
294	0.5059180218	0.6558199426
295	0.5057266811	0.6555811842
296	0.5055479281	0.6553530195
297	0.505370478	0.6551489666
298	0.5051506428	0.6548703524
299	0.5050587705	0.6547427432
300	0.5049995476	0.6546661423
301	0.5047739419	0.6544583129
302	0.5045487456	0.6541793248
303	0.5044342778	0.6540330035
304	0.5043203095	0.6538698092
305	0.5040919578	0.6535971828
306	0.5039082464	0.6533732488
307	0.503761958	0.6531598101
308	0.5036083999	0.6529582231
309	0.5033724629	0.6527207092
310	0.5031582699	0.6524389321
311	0.5030323129	0.6522610663
312	0.502853419	0.6520449646
313	0.502722901	0.6518838775
314	0.5025924326	0.6517024464
315	0.50231995	0.6513732252
316	0.5022187887	0.6512334786
317	0.5021065451	0.6510886212
318	0.5018717211	0.6507967194
319	0.5017394545	0.6506311245
320	0.5016056546	0.6504437261
321	0.5014498898	0.6502546287
322	0.5012807137	0.650041815
323	0.5010503137	0.6497977859
324	0.5009485842	0.6496564217
325	0.5007762997	0.6494576432
326	0.500673859	0.6493304799
327	0.5004682545	0.6491031238
328	0.5002890813	0.6488923354
329	0.5001739483	0.6487402741
330	0.50013147	0.6486823396
331	0.4999985323	0.6485066817
332	0.4998923564	0.648347708
333	0.4997638441	0.6481687826
334	0.499608887	0.647975836
335	0.4993483554	0.6476779743
336	0.4992169789	0.6475249205
337	0.4990456972	0.6473467821
338	0.4989182773	0.6471603841
339	0.4987798292	0.6469779626
340	0.4986360983	0.6467809614
341	0.4984787011	0.6465832686
342	0.4982961369	0.6463880416
343	0.4982114296	0.6462682293
344	0.4980999516	0.6461429579
345	0.49799935	0.6460009364
346	0.497734763	0.6456992312
347	0.497601331	0.6455390399
348	0.4974424527	0.6453567468
349	0.4972971177	0.6451750182
350	0.4971741855	0.6450334984
351	0.4970027635	0.6447792746
352	0.4968648722	0.644600499
353	0.4967558894	0.6444304932
354	0.496713528	0.6443700944
355	0.4965737188	0.6442019906
356	0.4963860947	0.6440115816
357	0.4962127039	0.6438002085
358	0.4960970784	0.6436406087
359	0.4960709981	0.6435947098
360	0.4960006497	0.6435068681
361	0.4958687445	0.6433424105
362	0.4956194481	0.6430593091
363	0.4954405999	0.6428615162
364	0.4952432262	0.6426204164
365	0.4950943296	0.6424407588
366	0.4948857997	0.6422101238
367	0.494801495	0.6420967729
368	0.4946528663	0.6418812981
369	0.4945238298	0.6417215918
370	0.4942682013	0.6414393376
371	0.4941491244	0.6412742976
372	0.4940017974	0.6410518394
373	0.4937610713	0.640810852
374	0.4936530277	0.6406564453
375	0.4933512296	0.6403235351
376	0.4931224192	0.6400279154
377	0.4929215335	0.6397617104
378	0.4928369357	0.6396510161
379	0.4927014599	0.6394736839
380	0.4926351264	0.6393663333
381	0.4924621114	0.6391506366
382	0.4922510047	0.6388802396
383	0.4920969079	0.6386672929
384	0.491923296	0.6384566946
385	0.4917921765	0.6382838455
386	0.4917177642	0.6381768571
387	0.4915865338	0.6379840718
388	0.491496022	0.637858888
389	0.4913788383	0.6376654343
390	0.4913495946	0.6376202792
391	0.4912413118	0.637477461
392	0.4910827128	0.6373007472
393	0.4909079059	0.6371090684
394	0.4907176927	0.636924743
395	0.4905141284	0.6367133605
396	0.4903191572	0.6364671668
397	0.4901882898	0.6362880337
398	0.4900335429	0.6360852782
399	0.4899304582	0.6359373629
400	0.4898375676	0.6358219104
401	0.4897160223	0.6356612436
402	0.4894636305	0.6354243491
403	0.4893638842	0.6352807974
404	0.4893443594	0.6352478035
405	0.4890752594	0.6350091502
406	0.4889463924	0.634880207
407	0.488763277	0.6346571521
408	0.4885995878	0.6344983976
409	0.4884941411	0.6343624389
410	0.4883936792	0.6342452953
411	0.4883012019	0.6341034818
412	0.4881828838	0.6339575245
413	0.4880109501	0.6337045746
414	0.4878411015	0.6334981817
415	0.4877412788	0.6333591924
416	0.4875588745	0.6331630562
417	0.4873878669	0.6329689766
418	0.487275552	0.6328022939
419	0.4869933123	0.632475061
420	0.4868007284	0.6322231335
421	0.4866557973	0.6320431807
422	0.4865105264	0.6318415835
423	0.4863541143	0.6316306762
424	0.4862187259	0.6314581569
425	0.4860326413	0.6312538757
426	0.4858795154	0.6310651447
427	0.4857966871	0.6309431487
428	0.4856941409	0.6308165249
429	0.4855512442	0.6306403353
430	0.4854331502	0.6304943164
431	0.4853145372	0.6303307925
432	0.4851808111	0.6301491192
433	0.4851298328	0.6300827568
434	0.4850118959	0.6299355613
435	0.4849257855	0.6298167936
436	0.4849058275	0.6297777144
437	0.4848045488	0.629653672
438	0.4846314956	0.6294438899
439	0.4845100811	0.629304208
440	0.4844922246	0.6292646532
441	0.4843343139	0.6290987254
442	0.4841490829	0.628895942
443	0.4840309555	0.6287401153
444	0.4839620081	0.6286280331
445	0.4838522526	0.6284961795
446	0.483832923	0.6284624458
447	0.4837470596	0.6283418559
448	0.4836201908	0.6281927651
449	0.4835530483	0.6281128175
450	0.483519464	0.6280586205
451	0.4833707325	0.6278764707
452	0.4833413352	0.6278393351
453	0.4832021916	0.627674688
454	0.4830441895	0.6274629473
455	0.4829096167	0.6272700582
456	0.4828913192	0.6272328456
457	0.4827516693	0.6270460659
458	0.482574385	0.6268150815
459	0.4824532886	0.6266399386
460	0.4823142747	0.6264641296
461	0.4821322962	0.6262457713
462	0.4819062786	0.6259613864
463	0.4817139337	0.6257228406
464	0.4816135946	0.6255720052
465	0.4814545803	0.6253738545
466	0.4813746953	0.625240852
467	0.4812415717	0.625057959
468	0.4811059989	0.6248948514
469	0.4809135104	0.6246492812
470	0.4806455424	0.6243477301
471	0.4805466416	0.6242141129
472	0.4805256958	0.6241751628
473	0.4804639863	0.6241013909
474	0.4803664117	0.6239463604
475	0.4801654694	0.623697599
476	0.47996151	0.6234397167
477	0.4799451583	0.6234064729
478	0.4798973382	0.6233161266
479	0.4797819235	0.6231671198
480	0.4796532334	0.6230314038
481	0.4794405918	0.6227739185
482	0.4793447036	0.6226508448
483	0.4792800456	0.622566416
484	0.4792474181	0.6225078404
485	0.4791704301	0.6224126141
486	0.4790431844	0.6222333387
487	0.4789131124	0.622047997
488	0.4787324242	0.621856511
489	0.4785369912	0.6216045365
490	0.4784146983	0.6214530464
491	0.478279707	0.621274415
492	0.4781865854	0.6211475215
493	0.478037295	0.620960182
494	0.4779111737	0.6207916547
495	0.4777742004	0.6206266938
496	0.4776210501	0.6204404593
497	0.4775144638	0.6203001574
498	0.4773974469	0.6201576101
499	0.4772773106	0.6199944843
500	0.477189652	0.6198704428
501	0.4770632575	0.6197321662
502	0.4769505242	0.6195782718
503	0.4768616203	0.6194479047
504	0.4768491588	0.6194211935
505	0.4767130034	0.6192690099
506	0.4765748381	0.6190838697
507	0.4764702285	0.6189208601
508	0.4763600568	0.6187818076
509	0.4761821293	0.6185773046
510	0.4760750091	0.6184517128
511	0.4759061505	0.6182807022
512	0.4757875028	0.6181355595
513	0.475687897	0.6180110519
514	0.4755638177	0.6178566119
515	0.4754675489	0.6177334572
516	0.4752967568	0.617514794
517	0.4751753253	0.6173531772
518	0.4751165261	0.6172752093
519	0.4750728185	0.6172154229
520	0.4748541606	0.6169589135
521	0.4747273698	0.6167929836
522	0.4745999604	0.6166265345
523	0.4744968686	0.6165070212
524	0.4743513184	0.6163139514
525	0.4742410473	0.6161997453
526	0.474109254	0.6160036393
527	0.473960621	0.615826323
528	0.4738132616	0.6156263573
529	0.4736315597	0.6154566152
530	0.4734876379	0.6152666082
531	0.473471474	0.6152324948
532	0.4732965435	0.6150244008
533	0.473180206	0.6148474629
534	0.473053243	0.6146982708
535	0.472908889	0.614536097
536	0.47282541	0.6144297557
537	0.4727102402	0.6142738687
538	0.4725753632	0.6141148223
539	0.4725016884	0.6140091937
540	0.4724783416	0.6139790609
541	0.4723192716	0.6137856409
542	0.4722123404	0.613653045
543	0.4721122045	0.6134869909
544	0.4720604063	0.6134099173
545	0.4719087571	0.6131977368
546	0.4717429751	0.6129833902
547	0.4716224495	0.6128116365
548	0.4715762414	0.6127393737
549	0.4714624877	0.6125811167
550	0.4713814685	0.6124800685
551	0.4712784324	0.6123582534
552	0.4712101145	0.6122749066
553	0.4710696517	0.6121287818
554	0.4709701874	0.6119776573
555	0.4708869427	0.6118732804
556	0.4707664562	0.6117079725
557	0.4706159769	0.6115152262
558	0.4704438913	0.6113124692
559	0.4702788367	0.6110883977
560	0.4701813429	0.6109619179
561	0.4700592776	0.6107930655
562	0.4699809249	0.610673472
563	0.4698264398	0.610492709
564	0.4696626066	0.6103049761
565	0.469581046	0.6102002827
566	0.4694287106	0.6100039375
567	0.469263228	0.6098341402
568	0.4690729652	0.609623406
569	0.4689411745	0.6094534542
570	0.4688314692	0.6093241569
571	0.4686538888	0.6090869886
572	0.4685154682	0.6089243289
573	0.4684033146	0.60876227
574	0.4683294169	0.608665707
575	0.4682077014	0.6085313156
576	0.4680953205	0.6083688681
577	0.4680126281	0.6082539103
578	0.4679504279	0.6081525959
579	0.4678577611	0.6080022748
580	0.4677827679	0.607896619
581	0.4676713868	0.6077580384
582	0.4675611813	0.6076173028
583	0.4674428366	0.607446802
584	0.467327385	0.6073135469
585	0.4672721584	0.6072261288
586	0.4671999302	0.6071339063
587	0.4671396582	0.6070549037
588	0.4669918809	0.6068787663
589	0.4669171323	0.6067756801
590	0.4668484283	0.6066650237
591	0.4666957548	0.6064656587
592	0.4665675264	0.6063111993
593	0.4664515881	0.6061785847
594	0.4663144938	0.6059629354
595	0.4661756707	0.6057889523
596	0.4661167156	0.6057102932
597	0.4660171922	0.6055947549
598	0.4659244282	0.6054646183
599	0.4658312792	0.6053241266
