iter	Passed	Remaining
0	625	374921
1	1323	395737
2	1878	373728
3	2404	358270
4	3091	367856
5	3800	376271
6	4361	369517
7	5028	372102
8	5646	370808
9	6270	369933
10	6859	367293
11	7401	362660
12	7947	358843
13	8484	355127
14	9021	351846
15	9755	356060
16	10294	353032
17	10985	355206
18	11508	351912
19	12026	348756
20	12541	345786
21	13070	343394
22	13702	343741
23	14445	346687
24	15187	349311
25	15845	349816
26	16359	347188
27	16865	344530
28	17369	342007
29	17889	339902
30	18413	337975
31	18929	336000
32	19467	334478
33	19983	332663
34	20591	332411
35	21111	330739
36	21762	331142
37	22353	330591
38	23007	330947
39	23603	330450
40	24252	330665
41	24904	330880
42	25608	331719
43	26118	330037
44	26628	328415
45	27158	327078
46	27768	326726
47	28698	330036
48	29345	329984
49	29971	329685
50	30560	328979
51	31230	329124
52	31796	328160
53	32368	327277
54	32922	326236
55	33513	325558
56	34063	324494
57	34595	323287
58	35204	322805
59	35872	322853
60	36489	322420
61	37073	321699
62	37676	321151
63	38356	321237
64	38899	320168
65	39527	319817
66	40107	319063
67	40754	318845
68	41359	318287
69	41920	317397
70	42479	316498
71	43031	315567
72	43565	314506
73	44093	313419
74	44625	312379
75	45160	311367
76	45692	310355
77	46238	309443
78	46774	308476
79	47300	307452
80	47834	306497
81	48385	305657
82	48928	304772
83	49448	303754
84	49984	302847
85	50517	301929
86	51085	301231
87	51611	300286
88	52137	299348
89	52668	298453
90	53190	297515
91	53747	296779
92	54301	296031
93	54867	295351
94	55414	294570
95	55957	293778
96	56479	292879
97	57010	292032
98	57584	291413
99	58173	290869
100	58798	290497
101	59433	290175
102	60049	289754
103	60629	289158
104	61167	288363
105	61698	287539
106	62232	286734
107	62773	285969
108	63352	285375
109	63896	284629
110	64454	283948
111	64988	283164
112	65567	282578
113	66134	281941
114	66678	281207
115	67269	280677
116	67872	280192
117	68413	279452
118	68956	278723
119	69494	277979
120	70035	277247
121	70563	276472
122	71093	275704
123	71620	274932
124	72170	274248
125	72721	273573
126	73250	272815
127	73778	272059
128	74314	271335
129	74848	270607
130	75386	269895
131	75962	269322
132	76484	268559
133	77009	267809
134	77579	267217
135	78110	266493
136	78640	265769
137	79170	265047
138	79728	264424
139	80260	263712
140	80785	262983
141	81348	262378
142	81911	261774
143	82446	261080
144	83004	260461
145	83662	260156
146	84342	259913
147	84914	259333
148	85494	258779
149	86043	258130
150	86622	257572
151	87178	256948
152	87736	256328
153	88316	255774
154	88896	255219
155	89476	254662
156	90038	254058
157	90596	253441
158	91187	252914
159	91756	252331
160	92302	251683
161	92837	251004
162	93651	251078
163	94571	251423
164	95282	251199
165	95963	250891
166	96723	250786
167	97498	250710
168	98216	250480
169	98936	250251
170	99521	249676
171	100063	248995
172	100605	248316
173	101133	247602
174	101653	246873
175	102171	246141
176	102767	245596
177	103347	245015
178	103987	244574
179	104573	244004
180	105236	243614
181	106047	243558
182	106626	242968
183	107253	242487
184	108085	242463
185	108827	242229
186	109477	241786
187	110111	241307
188	110641	240600
189	111347	240276
190	112070	239983
191	112844	239794
192	113734	239844
193	114529	239685
194	115288	239446
195	115856	238805
196	116433	238186
197	116994	237534
198	117521	236814
199	118055	236110
200	118569	235368
201	119117	234697
202	119757	234205
203	120417	233750
204	121022	233189
205	121622	232617
206	122257	232112
207	122843	231512
208	123436	230927
209	123998	230283
210	124592	229698
211	125119	228992
212	125627	228251
213	126168	227574
214	126677	226840
215	127211	226154
216	127734	225448
217	128257	224745
218	128777	224036
219	129309	223353
220	129920	222805
221	130583	222344
222	131172	221758
223	131810	221253
224	132310	220516
225	132816	219792
226	133327	219080
227	134038	218694
228	134610	218080
229	135385	217794
230	136180	217535
231	137119	217500
232	137928	217252
233	138828	217141
234	139676	216944
235	140500	216704
236	141208	216281
237	142233	216338
238	142953	215925
239	143648	215473
240	144278	214920
241	144897	214351
242	145578	213873
243	146236	213361
244	146872	212814
245	147454	212191
246	148072	211618
247	148853	211276
248	149582	210856
249	150320	210448
250	151090	210081
251	151852	209700
252	152487	209143
253	153168	208646
254	153981	208328
255	154850	208080
256	155679	207775
257	156519	207478
258	157419	207259
259	158091	206735
260	158807	206267
261	159539	205818
262	160215	205294
263	161005	204916
264	161739	204463
265	162429	203952
266	163199	203540
267	163984	203144
268	164699	202660
269	165483	202258
270	166228	201804
271	166957	201331
272	167578	200726
273	168357	200308
274	169118	199866
275	169891	199438
276	170599	198930
277	171341	198460
278	171987	197877
279	172630	197292
280	173385	196832
281	174192	196430
282	174917	195932
283	175637	195427
284	176308	194867
285	177099	194438
286	177878	193993
287	178598	193481
288	179415	193072
289	180124	192547
290	180787	191970
291	181551	191499
292	182262	190970
293	182873	190338
294	183568	189791
295	184183	189161
296	184856	188590
297	185499	187989
298	186199	187445
299	186879	186879
300	187484	186239
301	188174	185681
302	188825	185086
303	189520	184533
304	190215	183978
305	190921	183434
306	191663	182923
307	192490	182491
308	193206	181951
309	193846	181340
310	194512	180752
311	195252	180233
312	195965	179687
313	196648	179112
314	197321	178529
315	198043	177988
316	198823	177499
317	199552	176962
318	200271	176414
319	201024	175896
320	201710	175318
321	202353	174702
322	203021	174107
323	203719	173539
324	204461	173005
325	205166	172440
326	205848	171855
327	206523	171263
328	207265	170726
329	207972	170159
330	208648	169566
331	209289	168944
332	209962	168347
333	210611	167732
334	211284	167135
335	212075	166630
336	212807	166077
337	213430	165440
338	214126	164858
339	214761	164229
340	215543	163712
341	216339	163203
342	217087	162657
343	217802	162085
344	218428	161447
345	219042	160799
346	219664	160159
347	220423	159616
348	221093	159010
349	221753	158395
350	222643	157943
351	223432	157418
352	224287	156937
353	225115	156436
354	225848	155867
355	226517	155253
356	227114	154590
357	227700	153920
358	228283	153248
359	228827	152551
360	229369	151853
361	229922	151164
362	230482	150480
363	231049	149801
364	231699	149176
365	232355	148555
366	233038	147950
367	233696	147330
368	234315	146685
369	234971	146063
370	235614	145432
371	236122	144720
372	236645	144017
373	237151	143305
374	237720	142632
375	238289	141959
376	238939	141335
377	239573	140701
378	240168	140045
379	240679	139340
380	241263	138679
381	241844	138016
382	242462	137374
383	243002	136689
384	243601	136037
385	244128	135345
386	244730	134696
387	245293	134026
388	245841	133348
389	246398	132676
390	246927	131989
391	247464	131307
392	248076	130666
393	248742	130053
394	249353	129411
395	249881	128726
396	250504	128091
397	251103	127444
398	251617	126754
399	252253	126126
400	252879	125494
401	253554	124885
402	254150	124237
403	254698	123566
404	255295	122920
405	255819	122238
406	256331	121552
407	256858	120874
408	257363	120186
409	257970	119547
410	258536	118889
411	259148	118252
412	259695	117586
413	260380	116982
414	260956	116330
415	261511	115668
416	262111	115027
417	262685	114375
418	263259	113722
419	263827	113068
420	264379	112408
421	265012	111782
422	265560	111121
423	266135	110471
424	266745	109836
425	267347	109198
426	267901	108540
427	268466	107888
428	269007	107226
429	269564	106571
430	270094	105907
431	270694	105270
432	271311	104639
433	271840	103975
434	272354	103306
435	272871	102639
436	273374	101968
437	273878	101297
438	274380	100627
439	274883	99957
440	275379	99286
441	275885	98619
442	276398	97956
443	276906	97291
444	277412	96626
445	277913	95961
446	278410	95294
447	278909	94630
448	279413	93967
449	279929	93309
450	280436	92649
451	280959	91995
452	281459	91334
453	281950	90671
454	282451	90012
455	282976	89360
456	283461	88698
457	283965	88041
458	284468	87385
459	284958	86726
460	285456	86070
461	285952	85414
462	286472	84766
463	287019	84126
464	287552	83482
465	288078	82838
466	288570	82183
467	289105	81542
468	289681	80913
469	290323	80302
470	290841	79657
471	291340	79007
472	291843	78359
473	292343	77711
474	292856	77067
475	293395	76430
476	293939	75795
477	294460	75155
478	294979	74514
479	295496	73874
480	296003	73231
481	296520	72592
482	297025	71950
483	297544	71312
484	298050	70671
485	298653	70054
486	299170	69417
487	299684	68779
488	300190	68141
489	300728	67510
490	301233	66872
491	301747	66237
492	302310	65613
493	302901	64995
494	303450	64368
495	303971	63735
496	304492	63104
497	305009	62471
498	305529	61840
499	306083	61216
500	306622	60590
501	307189	59969
502	307750	59347
503	308281	58720
504	308793	58089
505	309314	57461
506	309882	56842
507	310414	56216
508	310984	55598
509	311505	54971
510	312070	54352
511	312689	53743
512	313197	53115
513	313771	52498
514	314319	51877
515	314881	51259
516	315439	50641
517	316039	50029
518	316600	49411
519	317146	48791
520	317713	48175
521	318281	47559
522	318862	46945
523	319369	46320
524	319886	45698
525	320473	45085
526	320979	44461
527	321500	43840
528	322066	43226
529	322620	42610
530	323203	41998
531	323793	41387
532	324374	40775
533	324943	40161
534	325626	39562
535	326314	38962
536	327066	38370
537	327805	37776
538	328456	37172
539	329080	36564
540	329828	35970
541	330597	35377
542	331337	34781
543	332113	34188
544	332879	33593
545	333605	32993
546	334256	32386
547	334858	31774
548	335417	31159
549	335980	30543
550	336551	29929
551	337078	29311
552	337710	28702
553	338388	28097
554	339097	27494
555	339726	26884
556	340344	26274
557	340925	25661
558	341543	25050
559	342155	24439
560	345481	24017
561	349549	23635
562	353160	23209
563	356798	22774
564	360599	22338
565	364279	21882
566	367923	21413
567	371902	20952
568	375676	20467
569	379423	19969
570	383131	19458
571	386908	18939
572	390516	18401
573	394324	17861
574	397923	17301
575	401821	16742
576	405546	16165
577	409601	15590
578	411184	14913
579	411892	14203
580	412542	13491
581	413209	12779
582	413883	12068
583	414688	11361
584	415441	10652
585	416130	9941
586	416815	9231
587	417604	8522
588	418302	7812
589	419107	7103
590	419744	6392
591	420331	5680
592	420933	4968
593	421503	4257
594	422080	3546
595	422620	2836
596	423177	2126
597	423697	1417
598	424259	708
599	424825	0
